[1319
1358,1423,1487,1562,1632,1721,1758,1801,1842,1858,1861,1851,1831,1808,1787,1716,1693,1648,1603,1574,1551,1521,1504,1501,1491,1495,1493,1499,1518,1522,1535,1555,1566,1582,1587,1591,1599,1606,1611,1613,1613,1610,1601,1606,1602,1625,1666,1758,1891,2064,2256,2470,2680,2849,2986,3071,3086,3034,2928,2771,2614,2426,2231,2047,1879,1723,1590,1479,1391,1334,1293,1282,1296,1328,1373,1424,1497,1567,1635,1712,1774,1815,1853,1869,1872,1867,1856,1827,1793,1747,1708,1662,1625,1593,1563,1543,1528,1510,1517,1520,1532,1535,1552,1566,1578,1587,1601,1613,1617,1621,1633,1635,1633,1635,1626,1629,1635,1663,1722,1836,1987,2176,2384,2595,2797,2962,3088,3159,3158,3077,2949,2787,2618,2432,2246,2065,1893,1743,1600,1498,1424,1360,1333,1323,1337,1377,1414,1485,1615,1635,1712,1770,1813,1851,1875,1883,1870,1845,1814,1774,1738,1698,1662,1635,1605,1580,1567,1555,1562,1562,1567,1582,1584,1600,1612,1622,1633,1639,1601,1632,1644,1641,1645,1646,1645,1642,1639,1633,1645,1651,1673,1750,1863,2032,2240,2475,2712,2928,3125,3307,3376,3365,3253,3095,2896,2699,2494,2285,2082,1913,1778,1635,1520,1435,1382,1350,1328,1353,1385,1425,1472,1566,1629,1691,1750,1802,1840,1871,1878,1872,1857,1834,1793,1751,1705,1647,1600,1558,1513,1484,1451,1422,1416,1418,1421,1429,1451,1462,1485,1498,1520,1555,1573,1599,1603,1611,1613,1619,1627,1619,1616,1616,1599,1599,1606,1628,1687,1793,1949,2146,2369,2599,2800,2953,3121,3205,3184,3103,2959,2788,2597,2389,2192,2006,1827,1675,1548,1445,1367,1313,1290,1284,1279,1314,1454,1411,1478,1546,1609,1668,1712,1756,1773,1794,1803,1787,1764,1744,1704,1667,1637,1600,1573,1534,1531,1493,1499,1486,1488,1498,1510,1520,1528,1556,1571,1597,1610,1632,1641,1648,1659,1678,1687,1711,1694,1706,1696,1685,1686,1695,1719,1789,1887,2031,2218,2438,2627,2805,2979,3101,3152,3132,3053,2909,2756,2596,2384,2210,2039,1877,1738,1616,1511,1425,1369,1347,1345,1360,1410,1437,1495,1562,1634,1703,1762,1812,1854,1877,1891,1887,1879,1857,1795,1789,1749,1712,1678,1613,1599,1569,1533,1521,1517,1508,1514,1517,1521,1524,1546,1552,1563,1573,1584,1586,1585,1600,1629,1648,1712,1808,1954,2154,2374,2599,2818,3011,3199,3271,3266,3214,3067,2887,2701,2509,2317,2123,1952,1794,1664,1567,1473,1415,1380,1362,1365,1382,1423,1469,1523,1587,1664,1717,1774,1809,1840,1835,1808,1831,1814,1776,1745,1713,1665,1632,1597,1570,1547,1520,1513,1507,1511,1520,1535,1530,1553,1564,1575,1585,1589,1609,1616,1617,1619,1616,1621,1623,1635,1677,1763,1895,2062,2277,2495,2722,2922,3071,3158,3174,3114,2989,2878,2640,2433,2231,2033,1855,1698,1565,1454,1365,1261,1291,1269,1300,1322,1371,1429,1495,1563,1640,1707,1747,1794,1809,1821,1810,1790,1770,1729,1695,1645,1605,1559,1520,1486,1458,1453,1437,1438,1446,1457,1471,1511,1493,1510,1523,1525,1547,1551,1556,1567,1565,1566,1574,1565,1570,1580,1600,1639,1736,1856,2020,2211,2414,2590,2753,2853,2922,2913,2864,2769,2647,2475,2368,2159,1993,1841,1715,1593,1506,1434,1401,1371,1383,1387,1408,1471,1520,1601,1672,1735,1792,1835,1875,1899,1904,1898,1886,1857,1810,1776,1734,1689,1657,1622,1598,1578,1556,1550,1535,1520,1531,1518,1535,1546,1552,1559,1553,1571,1566,1596,1627,1700,1799,1918,2128,2320,2518,2670,2797,2882,2901,2874,2797,2679,2538,2383,2224,2063,1920,1783,1667,1568,1475,1499,1469,1338,1392,1430,1488,1563,1638,1722,1787,1854,1906,1937,1954,1961,1936,1887,1861,1814,1775,1715,1661,1601,1524,1561,1543,1521,1520,1523,1522,1543,1549,1521,1575,1594,1607,1616,1634,1686,1769,1901,2069,2309,2498,2739,2944,3138,3269,3317,3271,3149,2975,2797,2587,2384,2176,1991,1824,1676,1555,1456,1379,1335,1311,1309,1326,1366,1415,1472,1547,1615,1674,1731,1727,1813,1828,1831,1819,1799,1783,1746,1714,1680,1648,1614,1587,1573,1547,1533,1549,1533,1527,1549,1553,1563,1525,1566,1570,1571,1584,1586,1603,1625,1685,1795,1954,2160,2384,2637,2885,3116,3295,3369,3376,3358,3169,2960,2771,2559,2335,2131,1947,1789,1648,1470,1435,1371,1338,1328,1362,1408,1460,1522,1612,1681,1745,1810,1859,1890,1841,1884,1865,1831,1778,1721,1648,1580,1582,1514,1482,1442,1426,1422,1424,1423,1425,1454,1477,1515,1517,1543,1558,1584,1595,1611,1616,1617,1622,1627,1645,1680,1759,1881,2064,2276,2512,2750,2950,3125,3233,3231,3182,3040,2861,2663,2448,2238,2032,1856,1664,1526,1402,1311,1249,1222,1215,1232,1311,1336,1503,1472,1571,1648,1714,1778,1811,1839,1846,1841,1823,1787,1755,1713,1680,1645,1616,1589,1552,1522,1509,1495,1482,1481,1479,1491,1502,1517,1520,1523,1489,1642,1555,1552,1571,1568,1578,1570,1569,1557,1556,1563,1613,1701,1851,2055,2288,2528,2768,2970,3142,3249,3163,3148,2988,2807,2608,2387,2176,1964,1763,1596,1449,1328,1246,1211,1185,1206,1243,1307,1386,1472,1558,1680,1743,1822,1873,1914,1932,1927,1919,1857,1813,1757,1714,1652,1613,1570,1518,1490,1467,1439,1459,1429,1442,1447,1457,1477,1490,1509,1521,1543,1552,1565,1563,1578,1583,1585,1590,1593,1610,1628,1680,1757,1903,2085,2283,2496,2709,2885,3024,3090,3088,3010,2863,2705,2513,2319,2113,1909,1729,1572,1427,1322,1233,1187,1168,1168,1200,1246,1310,1391,1469,1520,1634,1665,1759,1792,1826,1830,1827,1814,1789,1751,1719,1686,1648,1622,1594,1584,1571,1564,1563,1561,1568,1596]
[1809,1777,1739,1695,1650,1622,1601,1582,1574,1546,1534,1529,1533,1529,1551,1559,1562,1574,1584,1596,1605,1616,1604,1626,1625,1615,1610,1609,1600,1603,1596,1584,1582,1583,1592,1617,1686,1758,1875,2013,2164,2320,2465,2597,2692,2731,2767,2745,2692,2604,2493,2373,2259,2133,2007,1904,1810,1727,1657,1613,1566,1533,1507,1505,1509,1520,1525,1570,1602,1633,1663,1690,1705,1712,1665,1718,1711,1743,1679,1657,1638,1616,1584,1562,1506,1473,1491,1489,1485,1487,1488,1491,1503,1515,1535,1523,1546,1577,1572,1571,1582,1581,1583,1584,1585,1584,1556,1575,1573,1570,1562,1561,1552,1545,1527,1527,1549,1580,1638,1724,1834,1975,2128,2288,2389,2541,2593,2673,2698,2673,2621,2529,2419,2295,2176,2043,1967,1829,1744,1667,1606,1552,1515,1495,1473,1479,1457,1499,1522,1558,1592,1627,1648,1680,1695,1709,1729,1699,1697,1628,1659,1642,1616,1591,1558,1545,1513,1488,1465,1459,1461,1471,1473,1487,1495,1516,1525,1543,1556,1520,1573,1586,1585,1589,1590,1589,1588,1587,1583,1586,1557,1556,1552,1549,1545,1534,1533,1547,1634,1693,1766,1887,2032,2183,2317,2443,2559,2611,2641,2619,2589,2506,2413,2291,2161,2037,1918,1810,1721,1630,1570,1511,1475,1446,1442,1443,1456,1478,1510,1558,1600,1635,1681,1713,1744,1745,1755,1746,1712,1669,1670,1607,1618,1579,1554,1520,1505,1483,1473,1466,1462,1443,1478,1485,1502,1511,1525,1543,1551,1562,1567,1568,1582,1581,1585,1587,1587,1587,1606,1618,1643,1699,1787,1893,2017,2165,2302,2446,2551,2661,2686,2725,2704,2650,2559,2452,2359,2228,2112,1991,1903,1795,1716,1648,1616,1554,1527,1513,1506,1521,1552,1584,1615,1645,1681,1711,1746,1774,1787,1799,1792,1776,1773,1744,1728,1702,1674,1649,1619,1602,1580,1564,1552,1533,1551,1535,1535,1535,1552,1559,1522,1564,1578,1600,1610,1616,1621,1625,1627,1621,1630,1616,1602,1601,1606,1616,1652,1703,1794,1903,2058,2206,2353,2576,2665,2768,2835,2861,2835,2785,2699,2585,2461,2333,2205,2080,1967,1872,1778,1721,1658,1617,1591,1584,1567,1570,1586,1614,1638,1651,1681,1730,1746,1779,1795,1808,1808,1793,1782,1768,1740,1717,1655,1654,1645,1614,1601,1585,1573,1556,1551,1549,1551,1552,1562,1591,1591,1606,1618,1634,1646,1653,1669,1657,1657,1648,1648,1639,1635,1627,1625,1623,1662,1695,1777,1869,2000,2160,2314,2461,2599,2710,2782,2834,2805,2787,2704,2605,2482,2352,2230,2103,1984,1883,1743,1714,1655,1609,1572,1551,1535,1535,1549,1571,1581,1621,1666,1709,1737,1767,1785,1798,1797,1793,1802,1773,1749,1710,1682,1660,1620,1609,1583,1569,1554,1527,1528,1547,1535,1552,1551,1552,1559,1574,1584,1600,1601,1602,1609,1611,1617,1616,1613,1601,1578,1594,1586,1585,1615,1648,1725,1814,1948,2087,2221,2390,2529,2651,2751,2777,2788,2760,2689,2544,2460,2331,2198,2080,1963,1859,1763,1681,1622,1567,1526,1504,1519,1504,1525,1560,1601,1642,1680,1723,1767,1789,1778,1809,1827,1806,1793,1783,1754,1728,1712,1669,1642,1617,1603,1599,1575,1566,1569,1563,1571,1575,1584,1583,1599,1602,1611,1615,1616,1613,1616,1623,1615,1623,1639,1667,1712,1776,1885,2006,2149,2285,2444,2535,2617,2671,2691,2676,2624,2535,2423,2318,2198,2075,1955,1866,1761,1675,1614,1557,1520,1493,1491,1504,1507,1551,1581,1620,1657,1681,1728,1739,1763,1773,1795,1775,1779,1744,1716,1698,1673,1644,1626,1595,1584,1548,1552,1546,1551,1555,1553,1562,1578,1582,1593,1594,1603,1557,1600,1600,1607,1601,1604,1606,1600,1587,1617,1637,1712,1798,1927,2067,2224,2374,2512,2655,2747,2801,2821,2775,2722,2635,2515,2387,2270,2137,2013,1920,1813,1735,1676,1616,1571,1546,1524,1505,1511,1549,1535,1566,1602,1635,1657,1691,1712,1726,1725,1737,1721,1715,1698,1678,1647,1675,1594,1575,1559,1602,1525,1520,1530,1523,1531,1531,1559,1552,1557,1578,1578,1585,1594,1600,1609,1616,1616,1614,1615,1603,1600,1567,1595,1607,1647,1702,1788,1907,2064,2196,2374,2512,2640,2725,2779,2786,2750,2672,2577,2447,2325,2197,2079,1951,1856,1763,1695,1627,1581,1546,1519,1510,1499,1509,1525,1552,1586,1619,1649,1677,1701,1721,1737,1743,1744,1748,1731,1744,1686,1664,1621,1610,1591,1566,1552,1521,1502,1494,1505,1488,1505,1507,1507,1520,1533,1551,1572,1582,1583,1595,1599,1584,1572,1562,1567,1561,1555,1574,1582,1590,1613,1655,1719,1789,1927,2071,2224,2384,2522,2642,2757,2775,2794,2787,2697,2588,2468,2358,2224,2103,1968,1879,1802,1730,1669,1616,1582,1555,1531,1525,1555,1521,1590,1627,1659,1697,1725,1760,1779,1797,1803,1812,1805,1783,1763,1744,1712,1684,1657,1633,1610,1597,1535,1610,1584,1535,1599,1600,1610,1607,1616,1615,1621,1614,1629,1629,1631,1629,1626,1638,1639,1657,1635,1737,1817,1914,2055,2192,2342,2471,2593,2677,2731,2750,2726,2662,2579,2477,2358,2224,2109,1986,1897,1778,1680,1646,1590,1563,1535,1524,1529,1551,1583,1593,1630,1668,1708,1733,1757,1776,1792,1796,1788,1779,1758,1742,1714,1690,1662,1642,1618,1600,1584,1572,1573,1557,1552,1552,1553,1557,1570,1585,1583,1596,1593,1614,1607,1616,1616,1616,1619,1616,1616,1627,1626,1621,1663,1718,1798,1894,2033,2192,2347,2498,2650,2752,2825,2859,2858,2800,2715,2603,2475,2352,2197,2090,1968,1870,1781,1713,1659,1627,1602,1581,1563,1584,1584,1600,1616,1644,1667,1689,1719,1733,1744,1759,1761,1773,1754,1734,1712,1685,1663,1637,1621,1559,1555,1552,1548,1530,1522,1520,1520,1519,1520,1525,1552,1568]

[111,115,111,138,100,137,128,136,118,133,110,105,139,111,124]

117.14084782
134.59099771
130.62889692
107.95447755
147.27791424
128.39097181
125.18165933
114.10065519
111.74034763
137.196013  
121.43134982
121.74264482
113.87594004
112.52162591
134.59099771